2.933934695E+00  5.496534109E-01
2.952937961E+00  2.480268478E-01
2.971941227E+00  2.302422225E-01
2.990944494E+00  1.738988310E-01
3.009947760E+00  3.485434651E-01
3.028951026E+00  3.306665123E-01
3.047954292E+00  -8.941888809E-02
3.066957559E+00  -2.043595165E-02
3.085960825E+00  3.188627362E-01
3.104964091E+00  6.250371933E-01
3.123967357E+00  8.989519477E-01
3.142970624E+00  4.772376418E-01
3.161973890E+00  5.829463005E-01
3.180977156E+00  4.714634120E-01
3.199980422E+00  1.604386121E-01
3.218983689E+00  2.088432163E-01
3.237986955E+00  1.960523278E-01
3.256990221E+00  5.923225284E-01
3.275993487E+00  6.372667551E-01
3.294996754E+00  8.890955448E-01
3.314000020E+00  7.191069722E-01
3.333003286E+00  9.846986532E-01
3.352006552E+00  1.038214445E+00
3.371009819E+00  1.472074032E+00
3.390013085E+00  1.961749554E+00
3.409016351E+00  3.282297850E+00
3.428019618E+00  6.469627380E+00
3.447022884E+00  1.139858341E+01
3.466026150E+00  1.841243362E+01
3.485029416E+00  2.709345818E+01
3.504032683E+00  3.362792206E+01
3.523035949E+00  3.548963547E+01
3.542039215E+00  3.091105270E+01
3.561042481E+00  2.109390259E+01
3.580045748E+00  1.284199810E+01
3.599049014E+00  7.151443005E+00
3.618052280E+00  4.247090816E+00
3.637055546E+00  2.602693319E+00
3.656058813E+00  1.831405640E+00
3.675062079E+00  1.301950336E+00
3.694065345E+00  1.219284773E+00
3.713068611E+00  7.771791220E-01
3.732071878E+00  7.744439244E-01
3.751075144E+00  5.869280100E-01
3.770078410E+00  5.215924978E-01
3.789081676E+00  5.757337213E-01
3.808084943E+00  9.344246984E-01
3.827088209E+00  1.048551798E+00
3.846091475E+00  9.574340582E-01
3.865094741E+00  5.141829848E-01
3.884098008E+00  4.803415835E-01
3.903101274E+00  7.682592273E-01
3.922104540E+00  8.741886616E-01
3.941107806E+00  5.997450948E-01
3.960111073E+00  1.626496464E-01
3.979114339E+00  1.098585203E-01
3.998117605E+00  2.293211520E-01
4.017120871E+00  4.818361104E-01
4.036124138E+00  2.386340648E-01
4.055127404E+00  2.784076929E-01
4.074130670E+00  -3.210910782E-02
4.093133936E+00  1.809032857E-01
4.112137203E+00  1.517523378E-01
4.131140469E+00  6.767802238E-01
4.150143735E+00  7.295919657E-01
4.169147001E+00  7.278789878E-01
4.188150268E+00  4.112349749E-01
4.207153534E+00  3.206553757E-01
4.226156800E+00  5.668235421E-01
4.245160066E+00  -5.393249914E-02
4.264163333E+00  9.559127688E-02
4.283166599E+00  3.440482318E-01
4.302169865E+00  5.093172789E-01
4.321173131E+00  3.006482422E-01
4.340176398E+00  -3.534384817E-02
4.359179664E+00  1.153206676E-01
4.378182930E+00  4.495583177E-01
4.397186196E+00  1.223536253E+00
4.416189463E+00  1.641475916E+00
4.435192729E+00  1.513026476E+00
4.454195995E+00  1.332191944E+00
4.473199261E+00  1.015300751E+00
4.492202528E+00  9.941846132E-01
4.511205794E+00  8.344276547E-01
4.530209060E+00  8.748715520E-01
4.549212326E+00  3.920840919E-01
4.568215593E+00  2.727177441E-01
4.587218859E+00  -1.191619504E-02
4.606222125E+00  -1.496407539E-01
4.625225391E+00  4.928127676E-02
4.644228658E+00  -2.432255074E-02
4.663231924E+00  3.305954933E-01
4.682235190E+00  4.236733913E-01
4.701238456E+00  1.925950348E-01
4.720241723E+00  1.112031564E-01
4.739244989E+00  4.188257754E-01
4.758248255E+00  6.000764370E-01
4.777251521E+00  7.393037677E-01
4.796254788E+00  5.253106952E-01
4.815258054E+00  6.035310030E-01
4.834261320E+00  3.342128992E-01
4.853264586E+00  2.093850672E-01
4.872267853E+00  4.097768962E-01
4.891271119E+00  2.365551889E-01
4.910274385E+00  2.603212744E-02
4.929277651E+00  2.739982307E-01
4.948280918E+00  4.519190788E-01
4.967284184E+00  3.709526062E-01
4.986287450E+00  3.028784394E-01
5.005290716E+00  4.566630721E-01
5.024293983E+00  1.020790219E+00
5.043297249E+00  8.332455158E-01
5.062300515E+00  5.748925209E-01
5.081303782E+00  3.921539485E-01
5.100307048E+00  -2.710022926E-01
5.119310314E+00  -1.768324673E-01
5.138313580E+00  3.995417953E-01
5.157316847E+00  7.904325128E-01
5.176320113E+00  7.810886502E-01
5.195323379E+00  7.598866224E-01
5.214326645E+00  5.804341435E-01
5.233329912E+00  5.003955364E-01
5.252333178E+00  1.783153117E-01
5.271336444E+00  1.086432934E-01
5.290339710E+00  2.999851108E-01
5.309342977E+00  3.596483171E-01
5.328346243E+00  3.398461044E-01
5.347349509E+00  5.065236241E-02
5.366352775E+00  8.659514040E-02
5.385356042E+00  4.337402880E-01
5.404359308E+00  9.484184384E-01
5.423362574E+00  5.069115758E-01
5.442365840E+00  2.952768505E-01
5.461369107E+00  1.344331354E-01
5.480372373E+00  -1.935306638E-01
5.499375639E+00  -5.982836708E-02
5.518378905E+00  1.309417039E-01
5.537382172E+00  3.108829260E-01
5.556385438E+00  2.105615735E-01
5.575388704E+00  1.636792123E-01
5.594391970E+00  5.520803332E-01
5.613395237E+00  6.653108001E-01
5.632398503E+00  6.553919315E-01
5.651401769E+00  4.573530853E-01
5.670405035E+00  5.328245163E-01
5.689408302E+00  6.218541265E-01
5.708411568E+00  8.234444261E-01
5.727414834E+00  1.702579618E+00
5.746418100E+00  2.969562769E+00
5.765421367E+00  3.853293419E+00
5.784424633E+00  4.364010334E+00
5.803427899E+00  4.899981499E+00
5.822431165E+00  5.004677773E+00
5.841434432E+00  4.794828892E+00
5.860437698E+00  4.093938351E+00
5.879440964E+00  3.279376984E+00
5.898444230E+00  2.340442896E+00
5.917447497E+00  1.594809175E+00
5.936450763E+00  1.078339458E+00
5.955454029E+00  7.332763076E-01
5.974457295E+00  1.006477356E+00
5.993460562E+00  1.338383198E+00
6.012463828E+00  1.169350624E+00
6.031467094E+00  5.858619213E-01
6.050470360E+00  -1.454328299E-01
6.069473627E+00  -1.925379336E-01
6.088476893E+00  1.596516371E-01
6.107480159E+00  5.538752675E-01
6.126483425E+00  4.298298359E-01
6.145486692E+00  3.457790613E-01
6.164489958E+00  3.251104057E-01
6.183493224E+00  3.884695768E-01
6.202496490E+00  3.779483438E-01
6.221499757E+00  2.698279917E-01
6.240503023E+00  3.798706234E-01
6.259506289E+00  7.081365585E-01
6.278509555E+00  9.720803499E-01
6.297512822E+00  1.512266040E+00
6.316516088E+00  1.842980146E+00
6.335519354E+00  2.599328995E+00
6.354522620E+00  4.453284264E+00
6.373525887E+00  7.929402828E+00
6.392529153E+00  1.318410778E+01
6.411532419E+00  1.888923073E+01
6.430535685E+00  2.247133827E+01
6.449538952E+00  2.368241119E+01
6.468542218E+00  1.996154213E+01
6.487545484E+00  1.463878918E+01
6.506548750E+00  8.345485687E+00
6.525552017E+00  5.444358349E+00
6.544555283E+00  3.806007385E+00
6.563558549E+00  3.047704697E+00
6.582561815E+00  2.342307568E+00
6.601565082E+00  2.444626093E+00
6.620568348E+00  3.189394236E+00
6.639571614E+00  4.537930489E+00
6.658574880E+00  5.953000069E+00
6.677578147E+00  7.565762043E+00
6.696581413E+00  9.809145927E+00
6.715584679E+00  1.210113811E+01
6.734587946E+00  1.387034512E+01
6.753591212E+00  1.439552593E+01
6.772594478E+00  1.390027523E+01
6.791597744E+00  1.231199646E+01
6.810601011E+00  1.129154587E+01
6.829604277E+00  1.149437428E+01
6.848607543E+00  1.229771423E+01
6.867610809E+00  1.360245705E+01
6.886614076E+00  1.646363258E+01
6.905617342E+00  2.248296928E+01
6.924620608E+00  3.099528313E+01
6.943623874E+00  4.560999298E+01
6.962627141E+00  6.253205109E+01
6.981630407E+00  8.413065338E+01
7.000633673E+00  1.022323074E+02
7.019636939E+00  1.143514862E+02
7.038640206E+00  1.117980728E+02
7.057643472E+00  1.029025879E+02
7.076646738E+00  8.452247620E+01
7.095650004E+00  6.724113464E+01
7.114653271E+00  5.115570831E+01
7.133656537E+00  3.732714462E+01
7.152659803E+00  2.708948326E+01
7.171663069E+00  1.921204185E+01
7.190666336E+00  1.322319508E+01
7.209669602E+00  9.672992706E+00
7.228672868E+00  6.566659927E+00
7.247676134E+00  4.842578411E+00
7.266679401E+00  3.731575489E+00
7.285682667E+00  3.094489574E+00
7.304685933E+00  2.619913340E+00
7.323689199E+00  2.396198750E+00
7.342692466E+00  2.085669041E+00
7.361695732E+00  1.370740652E+00
7.380698998E+00  9.116414785E-01
7.399702264E+00  8.348772526E-01
7.418705531E+00  1.016252279E+00
7.437708797E+00  1.170501232E+00
7.456712063E+00  1.286836386E+00
7.475715329E+00  1.091504574E+00
7.494718596E+00  7.874577641E-01
7.513721862E+00  5.807823539E-01
7.532725128E+00  8.148556948E-01
7.551728394E+00  1.256190062E+00
7.570731661E+00  1.023189902E+00
7.589734927E+00  9.217246771E-01
7.608738193E+00  6.352841854E-01
7.627741459E+00  -3.792957589E-02
7.646744726E+00  -3.565564156E-01
7.665747992E+00  -1.058955267E-01
7.684751258E+00  2.501935661E-01
7.703754524E+00  4.841928780E-01
7.722757791E+00  6.879034042E-01
7.741761057E+00  6.733087301E-01
7.760764323E+00  8.732398748E-01
7.779767589E+00  7.855129838E-01
7.798770856E+00  9.571964741E-01
7.817774122E+00  7.732308507E-01
7.836777388E+00  3.952096701E-01
7.855780654E+00  2.996322513E-01
7.874783921E+00  6.023200154E-01
7.893787187E+00  6.320999861E-01
7.912790453E+00  6.010615230E-01
7.931793719E+00  9.427657127E-01
7.950796986E+00  1.153842807E+00
7.969800252E+00  9.366606474E-01
7.988803518E+00  6.214118004E-01
8.007806784E+00  3.802843988E-01
8.026810051E+00  5.627727509E-01
8.045813317E+00  1.057254672E-01
8.064816583E+00  -9.660004079E-02
8.083819849E+00  -1.029390469E-01
8.102823116E+00  1.235630587E-01
8.121826382E+00  3.965934813E-01
8.140829648E+00  4.894407094E-01
8.159832914E+00  4.459370375E-01
8.178836181E+00  1.446971893E-01
8.197839447E+00  -1.846929491E-01
8.216842713E+00  2.443763241E-02
8.235845979E+00  2.098868340E-01
8.254849246E+00  5.857152939E-01
8.273852512E+00  5.078465939E-01
8.292855778E+00  5.587844253E-01
8.311859045E+00  3.076983988E-01
8.330862311E+00  2.540281713E-01
8.349865577E+00  4.327694476E-01
8.368868843E+00  7.692568898E-01
8.387872110E+00  7.981285453E-01
8.406875376E+00  4.365201294E-01
8.425878642E+00  4.216731787E-01
8.444881908E+00  4.271777272E-01
8.463885175E+00  4.342049360E-01
8.482888441E+00  5.224479437E-01
8.501891707E+00  2.612977922E-01
8.520894973E+00  -3.209780902E-02
8.539898240E+00  -6.977996975E-02
8.558901506E+00  1.440078169E-01
8.577904772E+00  3.556529880E-01
8.596908038E+00  5.522730350E-01
8.615911305E+00  5.916766524E-01
8.634914571E+00  7.477453351E-01
8.653917837E+00  8.383193612E-01
8.672921103E+00  6.937056780E-01
8.691924370E+00  2.767204642E-01
8.710927636E+00  -3.534181789E-02
8.729930902E+00  -1.535265446E-01
8.748934168E+00  1.300476678E-02
8.767937435E+00  4.771265388E-01
8.786940701E+00  4.199662805E-01
8.805943967E+00  4.151029289E-01
8.824947233E+00  2.865237296E-01
8.843950500E+00  3.827947080E-01
8.862953766E+00  6.367534995E-01
8.881957032E+00  7.344396710E-01
8.900960298E+00  5.392736197E-01
8.919963565E+00  2.979280353E-01
8.938966831E+00  -1.037370935E-01
8.957970097E+00  -9.805745631E-02
8.976973363E+00  6.931743026E-02
8.995976630E+00  5.192172527E-01
9.014979896E+00  1.298611164E+00
9.033983162E+00  1.775320411E+00
9.052986428E+00  2.557602882E+00
9.071989695E+00  3.510278702E+00
9.090992961E+00  5.061262131E+00
9.109996227E+00  6.414252281E+00
9.128999493E+00  8.366721153E+00
9.148002760E+00  1.114804745E+01
9.167006026E+00  1.430530071E+01
9.186009292E+00  1.782097626E+01
9.205012558E+00  2.124331474E+01
9.224015825E+00  2.561789513E+01
9.243019091E+00  3.076490021E+01
9.262022357E+00  3.691108704E+01
9.281025623E+00  4.424278641E+01
9.300028890E+00  5.262419891E+01
9.319032156E+00  6.457514191E+01
9.338035422E+00  7.980703735E+01
9.357038688E+00  1.007510147E+02
9.376041955E+00  1.293005524E+02
9.395045221E+00  1.675207214E+02
9.414048487E+00  2.217417297E+02
9.433051753E+00  2.879085388E+02
9.452055020E+00  3.646538086E+02
9.471058286E+00  4.376718140E+02
9.490061552E+00  4.968386841E+02
9.509064818E+00  5.314321289E+02
9.528068085E+00  5.361109619E+02
9.547071351E+00  5.270907593E+02
9.566074617E+00  5.005304260E+02
9.585077883E+00  4.613634949E+02
9.604081150E+00  4.088053284E+02
9.623084416E+00  3.615760803E+02
9.642087682E+00  3.161441040E+02
9.661090948E+00  2.796975098E+02
9.680094215E+00  2.493952789E+02
9.699097481E+00  2.214191895E+02
9.718100747E+00  1.968708496E+02
9.737104013E+00  1.709788818E+02
9.756107280E+00  1.462693176E+02
9.775110546E+00  1.210928726E+02
9.794113812E+00  9.808779907E+01
9.813117078E+00  7.756228638E+01
9.832120345E+00  6.127055359E+01
9.851123611E+00  4.807596207E+01
9.870126877E+00  3.755817032E+01
9.889130143E+00  2.951012611E+01
9.908133410E+00  2.254482460E+01
9.927136676E+00  1.746278000E+01
9.946139942E+00  1.347561264E+01
9.965143209E+00  1.044084358E+01
9.984146475E+00  7.623737335E+00
1.000314974E+01  5.486933708E+00
1.002215301E+01  3.993828297E+00
1.004115627E+01  2.748194218E+00
1.006015954E+01  1.666869640E+00
1.007916281E+01  1.283487797E+00
1.009816607E+01  4.934456944E-01
1.011716934E+01  1.907477528E-01
1.013617260E+01  -1.686359197E-01
1.015517587E+01  -1.439001262E-01
1.017417914E+01  -7.310021520E-01
1.019318240E+01  -1.039585114E+00
1.021218567E+01  -9.438701272E-01
1.023118894E+01  -6.797312498E-01
1.025019220E+01  -5.882850885E-01
1.026919547E+01  -2.928922474E-01
1.028819873E+01  -3.575018048E-02
1.030720200E+01  3.944031000E-01
1.032620527E+01  3.661003709E-01
1.034520853E+01  6.104822755E-01
1.036421180E+01  6.278818846E-01
1.038321507E+01  1.379763722E+00
1.040221833E+01  2.321467400E+00
1.042122160E+01  3.387236834E+00
1.044022486E+01  4.471876144E+00
1.045922813E+01  6.189445019E+00
1.047823140E+01  8.253931999E+00
1.049723466E+01  1.073254585E+01
1.051623793E+01  1.310911465E+01
1.053524120E+01  1.576218319E+01
1.055424446E+01  1.818445969E+01
1.057324773E+01  2.067667961E+01
1.059225099E+01  2.285061455E+01
1.061125426E+01  2.494353104E+01
1.063025753E+01  2.672408676E+01
1.064926079E+01  2.765176582E+01
1.066826406E+01  2.788883591E+01
1.068726733E+01  2.693017387E+01
1.070627059E+01  2.534346581E+01
1.072527386E+01  2.285560989E+01
1.074427712E+01  2.087106323E+01
1.076328039E+01  1.939522171E+01
1.078228366E+01  1.886520576E+01
1.080128692E+01  1.825395584E+01
1.082029019E+01  1.825956345E+01
1.083929346E+01  1.854371643E+01
1.085829672E+01  1.901366806E+01
1.087729999E+01  1.998998451E+01
1.089630325E+01  2.099334526E+01
1.091530652E+01  2.243538475E+01
1.093430979E+01  2.353119469E+01
1.095331305E+01  2.515369415E+01
1.097231632E+01  2.646709061E+01
1.099131959E+01  2.816279984E+01
1.101032285E+01  2.951689339E+01
1.102932612E+01  3.101578331E+01
1.104832938E+01  3.213152313E+01
1.106733265E+01  3.257671356E+01
1.108633592E+01  3.280244827E+01
1.110533918E+01  3.271107864E+01
1.112434245E+01  3.293399811E+01
1.114334572E+01  3.312380981E+01
1.116234898E+01  3.301229858E+01
1.118135225E+01  3.204068756E+01
1.120035551E+01  3.119515228E+01
1.121935878E+01  3.113175774E+01
1.123836205E+01  3.125522614E+01
1.125736531E+01  3.186992455E+01
1.127636858E+01  3.228305435E+01
1.129537185E+01  3.105885124E+01
1.131437511E+01  2.922167015E+01
1.133337838E+01  2.656465340E+01
1.135238164E+01  2.417473602E+01
1.137138491E+01  2.054394722E+01
1.139038818E+01  1.707360840E+01
1.140939144E+01  1.346759987E+01
1.142839471E+01  1.080855370E+01
1.144739798E+01  8.732773781E+00
1.146640124E+01  7.459912300E+00
1.148540451E+01  6.466702938E+00
1.150440777E+01  5.412788391E+00
1.152341104E+01  4.349098682E+00
1.154241431E+01  3.510979176E+00
1.156141757E+01  3.008333921E+00
1.158042084E+01  2.773687840E+00
1.159942411E+01  2.653942823E+00
1.161842737E+01  2.525294304E+00
1.163743064E+01  2.109199047E+00
1.165643391E+01  2.052731514E+00
1.167543717E+01  2.020366907E+00
1.169444044E+01  1.541213751E+00
1.171344370E+01  8.465095758E-01
1.173244697E+01  1.667573154E-01
1.175145024E+01  -2.418603152E-01
1.177045350E+01  -3.836733997E-01
1.178945677E+01  -5.587566495E-01
1.180846004E+01  -4.950698316E-01
1.182746330E+01  -5.208669901E-01
1.184646657E+01  -8.618003130E-01
1.186546983E+01  -1.169088364E+00
1.188447310E+01  -9.797073007E-01
1.190347637E+01  -4.478059709E-01
1.192247963E+01  -3.778046668E-01
1.194148290E+01  -4.286353886E-01
1.196048617E+01  -4.009296894E-01
1.197948943E+01  -4.144932702E-02
1.199849270E+01  5.402547717E-01
1.201749596E+01  1.186109424E+00
1.203649923E+01  1.831819773E+00
1.205550250E+01  2.894316912E+00
1.207450576E+01  4.499827385E+00
1.209350903E+01  5.864073277E+00
1.211251230E+01  7.534303188E+00
1.213151556E+01  8.814321518E+00
1.215051883E+01  9.919055939E+00
1.216952209E+01  1.114485741E+01
1.218852536E+01  1.217485523E+01
1.220752863E+01  1.297560215E+01
1.222653189E+01  1.335719585E+01
1.224553516E+01  1.373816109E+01
1.226453843E+01  1.453901863E+01
1.228354169E+01  1.543651009E+01
1.230254496E+01  1.623988533E+01
1.232154822E+01  1.751173973E+01
1.234055149E+01  1.889063835E+01
1.235955476E+01  2.029704666E+01
1.237855802E+01  2.163760757E+01
1.239756129E+01  2.349965286E+01
1.241656456E+01  2.628233719E+01
1.243556782E+01  2.967015457E+01
1.245457109E+01  3.328495407E+01
1.247357435E+01  3.831803894E+01
1.249257762E+01  4.393143082E+01
1.251158089E+01  5.085555267E+01
1.253058415E+01  5.830732346E+01
1.254958742E+01  6.645149231E+01
1.256859069E+01  7.760647583E+01
1.258759395E+01  8.650321960E+01
1.260659722E+01  9.852301025E+01
1.262560048E+01  1.062939529E+02
1.264460375E+01  1.175640182E+02
1.266360702E+01  1.218284149E+02
1.268261028E+01  1.229269333E+02
1.270161355E+01  1.170900497E+02
1.272061682E+01  1.087404099E+02
1.273962008E+01  9.274407959E+01
1.275862335E+01  8.242804718E+01
1.277762661E+01  7.069685364E+01
1.279662988E+01  6.217518997E+01
1.281563315E+01  5.516462708E+01
1.283463641E+01  4.953916168E+01
1.285363968E+01  4.546113968E+01
1.287264295E+01  4.281829453E+01
1.289164621E+01  4.110091400E+01
1.291064948E+01  3.981895447E+01
1.292965274E+01  3.871706772E+01
1.294865601E+01  3.789625931E+01
1.296765928E+01  3.695383835E+01
1.298666254E+01  3.661497116E+01
1.300566581E+01  3.634266281E+01
1.302466908E+01  3.511801147E+01
1.304367234E+01  3.439647293E+01
1.306267561E+01  3.366808701E+01
1.308167887E+01  3.362961578E+01
1.310068214E+01  3.324742126E+01
1.311968541E+01  3.306937790E+01
1.313868867E+01  3.267555618E+01
1.315769194E+01  3.247674179E+01
1.317669521E+01  3.214061356E+01
1.319569847E+01  3.198926544E+01
1.321470174E+01  3.196965408E+01
1.323370500E+01  3.207737732E+01
1.325270827E+01  3.220222092E+01
1.327171154E+01  3.244634628E+01
1.329071480E+01  3.317545319E+01
1.330971807E+01  3.365524292E+01
1.332872134E+01  3.456204605E+01
1.334772460E+01  3.569667816E+01
1.336672787E+01  3.780091095E+01
1.338573113E+01  4.044045258E+01
1.340473440E+01  4.325221252E+01
1.342373767E+01  4.579077148E+01
1.344274093E+01  4.864085007E+01
1.346174420E+01  4.973378754E+01
1.348074747E+01  4.929124069E+01
1.349975073E+01  4.615464020E+01
1.351875400E+01  4.141633606E+01
1.353775726E+01  3.505897522E+01
1.355676053E+01  2.916760063E+01
1.357576380E+01  2.324220085E+01
1.359476706E+01  1.781369019E+01
1.361377033E+01  1.274692726E+01
1.363277360E+01  9.049384117E+00
1.365177686E+01  5.909994125E+00
1.367078013E+01  3.646327257E+00
1.368978339E+01  1.850155473E+00
1.370878666E+01  7.651081085E-01
1.372778993E+01  1.262247264E-01
1.374679319E+01  -2.539405525E-01
1.376579646E+01  -6.396623850E-01
1.378479973E+01  -4.357658327E-01
1.380380299E+01  -4.224291146E-01
1.382280626E+01  2.638594247E-02
1.384180952E+01  3.060010672E-01
1.386081279E+01  8.641936183E-01
1.387981606E+01  1.553521514E+00
1.389881932E+01  2.045583963E+00
1.391782259E+01  2.519726038E+00
1.393682586E+01  2.482238054E+00
1.395582912E+01  2.610867023E+00
1.397483239E+01  3.107052088E+00
1.399383565E+01  3.766876698E+00
1.401283892E+01  4.915883541E+00
1.403184219E+01  6.088839531E+00
1.405084545E+01  7.024744511E+00
1.406984872E+01  8.023157120E+00
1.408885199E+01  8.973901749E+00
1.410785525E+01  1.039993382E+01
1.412685852E+01  1.163365364E+01
1.414586178E+01  1.291608906E+01
1.416486505E+01  1.397140789E+01
1.418386832E+01  1.565477180E+01
1.420287158E+01  1.676918793E+01
1.422187485E+01  1.707033730E+01
1.424087812E+01  1.662656212E+01
1.425988138E+01  1.573954010E+01
1.427888465E+01  1.462142086E+01
1.429788791E+01  1.306564903E+01
1.431689118E+01  1.120881271E+01
1.433589445E+01  9.479775429E+00
1.435489771E+01  7.414875031E+00
1.437390098E+01  5.338501930E+00
1.439290425E+01  3.537502766E+00
1.441190751E+01  2.250671625E+00
1.443091078E+01  1.155795336E+00
1.444991404E+01  3.345588446E-01
1.446891731E+01  -1.620389819E-01
1.448792058E+01  -3.158515394E-01
1.450692384E+01  -5.673496127E-01
1.452592711E+01  -4.838334322E-01
1.454493038E+01  -5.604727864E-01
1.456393364E+01  -5.451200604E-01
1.458293691E+01  -4.646162391E-01
1.460194017E+01  -2.991063893E-01
1.462094344E+01  -3.978416026E-01
1.463994671E+01  -5.580665469E-01
1.465894997E+01  -5.151926279E-01
1.467795324E+01  -3.040496409E-01
1.469695651E+01  -1.437276900E-01
1.471595977E+01  1.158895269E-01
1.473496304E+01  2.557213306E-01
1.475396630E+01  2.000324577E-01
1.477296957E+01  6.936562061E-02
1.479197284E+01  -1.400919706E-01
1.481097610E+01  1.339206845E-01
1.482997937E+01  3.168264031E-01
1.484898264E+01  4.565933943E-01
1.486798590E+01  3.168892860E-01
1.488698917E+01  3.479820788E-01
1.490599243E+01  5.953846574E-01
1.492499570E+01  9.533635378E-01
1.494399897E+01  1.041891098E+00
1.496300223E+01  1.089807749E+00
1.498200550E+01  7.763280272E-01
1.500100877E+01  6.878418922E-01
1.502001203E+01  3.339044154E-01
1.503901530E+01  3.282806575E-01
1.505801856E+01  3.803074956E-01
1.507702183E+01  4.474043548E-01
1.509602510E+01  2.422739267E-01
1.511502836E+01  -4.586859606E-03
1.513403163E+01  1.184268445E-01
1.515303490E+01  4.641125500E-01
1.517203816E+01  5.329411626E-01
1.519104143E+01  6.058530807E-01
1.521004469E+01  5.001315475E-01
1.522904796E+01  4.940842390E-01
1.524805123E+01  5.727849603E-01
1.526705449E+01  3.918329179E-01
1.528605776E+01  1.281360537E-01
1.530506103E+01  -2.688007243E-02
1.532406429E+01  -1.413901523E-02
1.534306756E+01  2.954816632E-02
1.536207082E+01  2.210671008E-01
1.538107409E+01  2.445827872E-01
1.540007736E+01  1.624673903E-01
1.541908062E+01  1.856548786E-01
1.543808389E+01  4.648240805E-01
1.545708716E+01  5.497184396E-01
1.547609042E+01  3.684699237E-01
1.549509369E+01  2.041768879E-01
1.551409695E+01  3.966858685E-01
1.553310022E+01  7.679153085E-01
1.555210349E+01  8.652025461E-01
1.557110675E+01  8.277440667E-01
1.559011002E+01  9.671008587E-01
1.560911329E+01  1.479494452E+00
1.562811655E+01  1.858801484E+00
1.564711982E+01  1.972527862E+00
1.566612308E+01  1.959438086E+00
1.568512635E+01  2.225466013E+00
1.570412962E+01  2.786932230E+00
1.572313288E+01  3.093466043E+00
1.574213615E+01  3.433966398E+00
1.576113942E+01  3.843065977E+00
1.578014268E+01  4.214978695E+00
1.579914595E+01  4.606859207E+00
1.581814921E+01  4.789525986E+00
1.583715248E+01  5.192605019E+00
1.585615575E+01  6.176488876E+00
1.587515901E+01  7.275928974E+00
1.589416228E+01  8.270882607E+00
1.591316555E+01  9.077644348E+00
1.593216881E+01  9.981219292E+00
1.595117208E+01  1.103744221E+01
1.597017534E+01  1.243682194E+01
1.598917861E+01  1.424157429E+01
1.600818188E+01  1.628202820E+01
1.602718514E+01  1.785266113E+01
1.604618841E+01  1.912769508E+01
1.606519168E+01  1.988113594E+01
1.608419494E+01  2.061044502E+01
1.610319821E+01  2.098041534E+01
1.612220147E+01  2.161608124E+01
1.614120474E+01  2.245064926E+01
1.616020801E+01  2.330829430E+01
1.617921127E+01  2.432314682E+01
1.619821454E+01  2.540388107E+01
1.621721781E+01  2.659096527E+01
1.623622107E+01  2.741631889E+01
1.625522434E+01  2.821169662E+01
1.627422760E+01  2.903572845E+01
1.629323087E+01  2.945394707E+01
1.631223414E+01  2.999930763E+01
1.633123740E+01  3.042770767E+01
1.635024067E+01  3.052899170E+01
1.636924394E+01  3.090885544E+01
1.638824720E+01  3.128575325E+01
1.640725047E+01  3.113746643E+01
1.642625373E+01  3.071234512E+01
1.644525700E+01  2.988853264E+01
1.646426027E+01  2.875543976E+01
1.648326353E+01  2.792408752E+01
1.650226680E+01  2.660093498E+01
1.652127007E+01  2.502566910E+01
1.654027333E+01  2.295852852E+01
1.655927660E+01  2.114540482E+01
1.657827986E+01  1.895492172E+01
1.659728313E+01  1.701738930E+01
1.661628640E+01  1.501730537E+01
1.663528966E+01  1.342286873E+01
1.665429293E+01  1.160153103E+01
1.667329620E+01  1.035609913E+01
1.669229946E+01  8.771596909E+00
1.671130273E+01  7.612636566E+00
1.673030599E+01  6.667515278E+00
1.674930926E+01  6.316793442E+00
1.676831253E+01  5.636485100E+00
1.678731579E+01  4.725774765E+00
1.680631906E+01  4.135512829E+00
1.682532233E+01  3.957419395E+00
1.684432559E+01  3.604389429E+00
1.686332886E+01  3.202749968E+00
1.688233212E+01  2.950935125E+00
1.690133539E+01  2.616190195E+00
1.692033866E+01  2.301188946E+00
1.693934192E+01  1.966283441E+00
1.695834519E+01  1.695860982E+00
1.697734846E+01  1.673901677E+00
1.699635172E+01  1.799106359E+00
1.701535499E+01  1.679298759E+00
1.703435825E+01  1.372514606E+00
1.705336152E+01  1.276759148E+00
1.707236479E+01  1.345629573E+00
1.709136805E+01  1.324797273E+00
1.711037132E+01  1.332774162E+00
1.712937459E+01  1.351330757E+00
1.714837785E+01  1.406527996E+00
1.716738112E+01  1.444450617E+00
1.718638438E+01  1.417359233E+00
1.720538765E+01  1.122055054E+00
1.722439092E+01  9.455468059E-01
1.724339418E+01  9.725041389E-01
1.726239745E+01  1.316053152E+00
1.728140072E+01  1.347101331E+00
1.730040398E+01  1.516160727E+00
1.731940725E+01  1.858063102E+00
1.733841051E+01  2.129563570E+00
1.735741378E+01  2.481810093E+00
1.737641705E+01  2.889298677E+00
1.739542031E+01  3.032715559E+00
1.741442358E+01  3.211884260E+00
1.743342685E+01  3.559846640E+00
1.745243011E+01  4.070617199E+00
1.747143338E+01  4.693739414E+00
1.749043664E+01  5.173839092E+00
1.750943991E+01  5.443720341E+00
1.752844318E+01  6.126560211E+00
1.754744644E+01  7.086961746E+00
1.756644971E+01  8.104677200E+00
1.758545298E+01  8.756329536E+00
1.760445624E+01  9.936807632E+00
1.762345951E+01  1.142397785E+01
1.764246277E+01  1.299806213E+01
1.766146604E+01  1.468295479E+01
1.768046931E+01  1.657872963E+01
1.769947257E+01  1.892474174E+01
1.771847584E+01  2.125986481E+01
1.773747911E+01  2.449628830E+01
1.775648237E+01  2.851591492E+01
1.777548564E+01  3.357382584E+01
1.779448890E+01  3.818973923E+01
1.781349217E+01  4.353351212E+01
1.783249544E+01  4.880590820E+01
1.785149870E+01  5.428986359E+01
1.787050197E+01  5.832050705E+01
1.788950524E+01  6.158049774E+01
1.790850850E+01  6.459407806E+01
1.792751177E+01  6.707636261E+01
1.794651503E+01  6.816948700E+01
1.796551830E+01  6.820586395E+01
1.798452157E+01  6.735890198E+01
1.800352483E+01  6.581633759E+01
1.802252810E+01  6.342766953E+01
1.804153137E+01  6.085707092E+01
1.806053463E+01  5.859096146E+01
1.807953790E+01  5.583471680E+01
1.809854116E+01  5.276847839E+01
1.811754443E+01  4.910206223E+01
1.813654770E+01  4.455025482E+01
1.815555096E+01  4.037050629E+01
1.817455423E+01  3.644785309E+01
1.819355750E+01  3.270813751E+01
1.821256076E+01  2.915723228E+01
1.823156403E+01  2.591178703E+01
1.825056729E+01  2.273580933E+01
1.826957056E+01  1.955025101E+01
1.828857383E+01  1.654586029E+01
1.830757709E+01  1.432158566E+01
1.832658036E+01  1.252093887E+01
1.834558363E+01  1.087826824E+01
1.836458689E+01  9.387289047E+00
1.838359016E+01  7.832229137E+00
1.840259342E+01  6.673979759E+00
1.842159669E+01  5.615406990E+00
1.844059996E+01  4.992997169E+00
1.845960322E+01  4.095320702E+00
1.847860649E+01  3.530431032E+00
1.849760976E+01  3.205906630E+00
1.851661302E+01  3.095508337E+00
1.853561629E+01  2.882289648E+00
1.855461955E+01  2.405323505E+00
1.857362282E+01  2.027238131E+00
1.859262609E+01  1.546961308E+00
1.861162935E+01  1.458033204E+00
1.863063262E+01  1.181769371E+00
1.864963589E+01  9.742386341E-01
1.866863915E+01  6.255220175E-01
1.868764242E+01  5.512445569E-01
1.870664568E+01  3.159765899E-01
1.872564895E+01  3.912693560E-01
1.874465222E+01  3.703105152E-01
1.876365548E+01  5.845260620E-01
1.878265875E+01  3.930346668E-01
1.880166202E+01  5.504867435E-01
1.882066528E+01  7.735422850E-01
1.883966855E+01  1.107246399E+00
1.885867181E+01  1.532180309E+00
1.887767508E+01  1.930386424E+00
1.889667835E+01  2.497933626E+00
1.891568161E+01  3.160420179E+00
1.893468488E+01  3.588515282E+00
1.895368815E+01  4.213354588E+00
1.897269141E+01  4.697177410E+00
1.899169468E+01  5.330034733E+00
1.901069794E+01  5.653921127E+00
1.902970121E+01  5.861516476E+00
1.904870448E+01  5.765747070E+00
1.906770774E+01  5.774671078E+00
1.908671101E+01  5.550799847E+00
1.910571428E+01  5.268689632E+00
1.912471754E+01  4.866623402E+00
1.914372081E+01  4.840308189E+00
1.916272407E+01  4.459488392E+00
1.918172734E+01  3.971336603E+00
1.920073061E+01  3.296228409E+00
1.921973387E+01  2.619982958E+00
1.923873714E+01  2.116714478E+00
1.925774041E+01  1.610409498E+00
1.927674367E+01  1.056077361E+00
1.929574694E+01  7.027394176E-01
1.931475020E+01  2.015469223E-01
1.933375347E+01  -2.642204762E-01
1.935275674E+01  -4.308678806E-01
1.937176000E+01  -6.412820220E-01
1.939076327E+01  -5.800250173E-01
1.940976654E+01  -6.879028082E-01
1.942876980E+01  -5.602157116E-01
1.944777307E+01  -6.121386290E-01
1.946677633E+01  -2.779610157E-01
1.948577960E+01  -5.236264691E-02
1.950478287E+01  2.863031030E-01
1.952378613E+01  3.592486978E-01
1.954278940E+01  8.743358254E-01
1.956179267E+01  1.350442171E+00
1.958079593E+01  1.935302138E+00
1.959979920E+01  2.357303381E+00
1.961880246E+01  3.095833063E+00
1.963780573E+01  3.627140522E+00
1.965680900E+01  4.198737621E+00
1.967581226E+01  5.146198273E+00
1.969481553E+01  6.415375710E+00
1.971381880E+01  7.960202217E+00
1.973282206E+01  9.241010666E+00
1.975182533E+01  1.095621777E+01
1.977082860E+01  1.216252708E+01
1.978983186E+01  1.354325771E+01
1.980883513E+01  1.399288368E+01
1.982783839E+01  1.416994667E+01
1.984684166E+01  1.419493675E+01
1.986584493E+01  1.340449333E+01
1.988484819E+01  1.223141861E+01
1.990385146E+01  1.063633728E+01
1.992285473E+01  9.440189362E+00
1.994185799E+01  8.406315804E+00
1.996086126E+01  7.249347210E+00
1.997986452E+01  6.368916512E+00
1.999886779E+01  5.355678082E+00
2.001787106E+01  4.691247463E+00
2.003687432E+01  3.804874182E+00
2.005587759E+01  3.000156641E+00
2.007488086E+01  2.221319675E+00
2.009388412E+01  1.707970023E+00
2.011288739E+01  1.277647376E+00
2.013189065E+01  9.596481919E-01
2.015089392E+01  7.328467369E-01
2.016989719E+01  7.754714489E-01
2.018890045E+01  8.080820441E-01
2.020790372E+01  5.474401116E-01
2.022690699E+01  4.525006711E-01
2.024591025E+01  4.114508629E-01
2.026491352E+01  1.179796085E-01
2.028391678E+01  3.770232201E-02
2.030292005E+01  9.984992445E-02
2.032192332E+01  1.669560075E-01
2.034092658E+01  1.554592550E-01
2.035992985E+01  2.542273700E-01
2.037893312E+01  2.701007724E-01
2.039793638E+01  3.129120469E-01
2.041693965E+01  3.216594458E-01
2.043594291E+01  2.748980224E-01
2.045494618E+01  3.798127174E-01
2.047394945E+01  4.262984991E-01
2.049295271E+01  3.913903236E-01
2.051195598E+01  1.478640735E-01
2.053095925E+01  1.440495905E-02
2.054996251E+01  -5.251600221E-02
2.056896578E+01  -1.749764383E-02
2.058796904E+01  2.645289898E-02
2.060697231E+01  -7.195916772E-02
2.062597558E+01  -2.038347721E-01
2.064497884E+01  -2.089874595E-01
2.066398211E+01  5.940087512E-02
2.068298538E+01  3.733046055E-01
2.070198864E+01  4.324816763E-01
2.072099191E+01  4.808620811E-01
2.073999517E+01  4.623973966E-01
2.075899844E+01  5.029014349E-01
2.077800171E+01  5.813760161E-01
2.079700497E+01  4.543522596E-01
2.081600824E+01  3.869798481E-01
2.083501151E+01  3.611914217E-01
2.085401477E+01  4.429700375E-01
2.087301804E+01  4.658548534E-01
2.089202130E+01  1.845311821E-01
2.091102457E+01  6.017848849E-02
2.093002784E+01  -4.859713092E-02
2.094903110E+01  7.900870591E-02
2.096803437E+01  1.396398544E-01
2.098703764E+01  4.530174732E-01
2.100604090E+01  3.915840387E-01
2.102504417E+01  2.317137420E-01
2.104404743E+01  1.180407256E-01
2.106305070E+01  3.057305515E-01
2.108205397E+01  3.891156614E-01
2.110105723E+01  3.456212282E-01
2.112006050E+01  3.967144191E-01
2.113906377E+01  4.866588712E-01
2.115806703E+01  4.217243791E-01
2.117707030E+01  3.415215313E-01
2.119607356E+01  3.242431581E-01
2.121507683E+01  2.985053360E-01
2.123408010E+01  3.878491223E-01
2.125308336E+01  4.358592033E-01
2.127208663E+01  3.226941228E-01
2.129108990E+01  1.487495005E-01
2.131009316E+01  -3.500278667E-02
2.132909643E+01  -7.336061448E-02
2.134809969E+01  -7.440450042E-02
2.136710296E+01  1.819233447E-01
2.138610623E+01  3.340503871E-01
2.140510949E+01  3.101162016E-01
2.142411276E+01  2.974691615E-02
2.144311603E+01  1.168700829E-01
2.146211929E+01  1.042035297E-01
2.148112256E+01  1.357334405E-01
2.150012582E+01  1.057177708E-01
2.151912909E+01  2.107922435E-01
2.153813236E+01  4.040483832E-01
2.155713562E+01  4.668298364E-01
2.157613889E+01  1.026697308E-01
2.159514216E+01  -1.696634591E-01
2.161414542E+01  -2.429182641E-02
2.163314869E+01  1.158679426E-01
2.165215195E+01  1.664359868E-02
2.167115522E+01  -1.962493174E-02
2.169015849E+01  4.058336094E-02
2.170916175E+01  2.548382878E-01
2.172816502E+01  1.169073135E-01
2.174716829E+01  4.371645395E-03
2.176617155E+01  2.478036564E-03
2.178517482E+01  7.624983042E-02
2.180417808E+01  4.813970067E-03
2.182318135E+01  -2.487830259E-02
2.184218462E+01  5.886319652E-02
2.186118788E+01  6.112661958E-02
2.188019115E+01  -3.328166530E-02
2.189919442E+01  4.844116047E-03
2.191819768E+01  -9.882219136E-02
2.193720095E+01  -8.043333888E-02
2.195620421E+01  7.346145064E-02
2.197520748E+01  7.248539478E-02
2.199421075E+01  1.692256308E-03
2.201321401E+01  -4.334558919E-02
2.203221728E+01  9.461849928E-03
